# #1 Wavelength (nm) #2 PDE ()
2.700000000000000000e+02 1.009359999999999979e-01
2.800000000000000000e+02 1.073420000000000069e-01
2.900000000000000000e+02 1.303620000000000057e-01
3.000000000000000000e+02 1.585979999999999890e-01
3.100000000000000000e+02 1.936779999999999891e-01
3.200000000000000000e+02 2.309849999999999959e-01
3.300000000000000000e+02 2.340379999999999960e-01
3.400000000000000000e+02 2.393470000000000042e-01
3.500000000000000000e+02 2.440039999999999987e-01
3.600000000000000000e+02 2.477060000000000095e-01
3.700000000000000000e+02 2.558210000000000206e-01
3.800000000000000000e+02 2.787899999999999823e-01
3.900000000000000000e+02 2.950769999999999782e-01
4.000000000000000000e+02 3.039859999999999784e-01
4.100000000000000000e+02 3.108630000000000004e-01
4.200000000000000000e+02 3.191339999999999733e-01
4.300000000000000000e+02 3.275620000000000198e-01
4.400000000000000000e+02 3.347300000000000275e-01
4.500000000000000000e+02 3.408680000000000043e-01
4.600000000000000000e+02 3.471739999999999826e-01
4.700000000000000000e+02 3.508530000000000260e-01
4.800000000000000000e+02 3.527520000000000100e-01
4.900000000000000000e+02 3.522950000000000248e-01
5.000000000000000000e+02 3.461290000000000200e-01
5.100000000000000000e+02 3.406589999999999896e-01
5.200000000000000000e+02 3.326200000000000268e-01
5.300000000000000000e+02 3.229210000000000136e-01
5.400000000000000000e+02 3.107699999999999907e-01
5.500000000000000000e+02 3.028600000000000181e-01
5.600000000000000000e+02 2.930059999999999887e-01
5.700000000000000000e+02 2.849760000000000071e-01
5.800000000000000000e+02 2.774360000000000159e-01
5.900000000000000000e+02 2.724280000000000035e-01
6.000000000000000000e+02 2.591510000000000202e-01
6.100000000000000000e+02 2.484220000000000039e-01
6.200000000000000000e+02 2.423990000000000034e-01
6.300000000000000000e+02 2.309319999999999984e-01
6.400000000000000000e+02 2.238729999999999887e-01
6.500000000000000000e+02 2.099449999999999927e-01
6.600000000000000000e+02 2.027480000000000115e-01
6.700000000000000000e+02 1.933400000000000118e-01
6.800000000000000000e+02 1.832779999999999965e-01
6.900000000000000000e+02 1.743129999999999957e-01
7.000000000000000000e+02 1.624220000000000108e-01
7.100000000000000000e+02 1.551619999999999944e-01
7.200000000000000000e+02 1.474699999999999900e-01
7.300000000000000000e+02 1.382639999999999980e-01
7.400000000000000000e+02 1.314730000000000065e-01
7.500000000000000000e+02 1.265630000000000088e-01
7.600000000000000000e+02 1.174430000000000057e-01
7.700000000000000000e+02 1.082160000000000066e-01
7.800000000000000000e+02 1.017760000000000054e-01
7.900000000000000000e+02 9.476859999999999451e-02
8.000000000000000000e+02 8.916499999999999426e-02
8.100000000000000000e+02 7.380050000000000499e-02
8.200000000000000000e+02 6.892840000000000078e-02
8.300000000000000000e+02 6.158020000000000160e-02
8.400000000000000000e+02 5.780160000000000159e-02
8.500000000000000000e+02 5.364569999999999755e-02
8.600000000000000000e+02 4.864310000000000161e-02
8.700000000000000000e+02 4.455039999999999695e-02
8.800000000000000000e+02 4.028380000000000155e-02
8.900000000000000000e+02 3.545729999999999715e-02
9.000000000000000000e+02 3.194960000000000161e-02
9.100000000000000000e+02 2.864389999999999992e-02
9.200000000000000000e+02 2.486069999999999947e-02
9.300000000000000000e+02 2.285330000000000000e-02
9.400000000000000000e+02 1.992299999999999974e-02
9.500000000000000000e+02 1.766229999999999883e-02
9.600000000000000000e+02 1.534179999999999919e-02
9.700000000000000000e+02 1.338690000000000019e-02
9.800000000000000000e+02 1.162919999999999926e-02
9.900000000000000000e+02 1.021129999999999954e-02
1.000000000000000000e+03 8.944840000000000776e-03
1.010000000000000000e+03 8.235960000000000503e-03
1.020000000000000000e+03 7.297060000000000178e-03
1.030000000000000000e+03 6.331119999999999977e-03
1.040000000000000000e+03 5.029539999999999879e-03
1.050000000000000000e+03 4.884659999999999870e-03
1.060000000000000000e+03 4.559530000000000007e-03
1.070000000000000000e+03 4.605269999999999850e-03
1.080000000000000000e+03 3.851659999999999806e-03
1.090000000000000000e+03 4.008259999999999601e-03
1.100000000000000000e+03 3.136990000000000091e-03
1.110000000000000000e+03 1.932349999999999996e-03
1.120000000000000000e+03 3.451280000000000146e-03
1.130000000000000000e+03 3.272290000000000181e-03
1.140000000000000000e+03 2.317210000000000103e-03
1.150000000000000000e+03 1.980739999999999931e-03
1.160000000000000000e+03 3.120320000000000212e-03
1.170000000000000000e+03 1.607059999999999999e-03
1.180000000000000000e+03 4.452430000000000060e-04
1.190000000000000000e+03 0.000000000000000000e+00
