Wavelength_nm	 Transmittance
170.67	 76.6852114371
171.01	 57.7277372744
171.36	 40.0661029855
171.7	 24.8765388661
172.05	 12.9315918188
172.4	 4.49732790058
172.74	 -0.648320394377
173.09	 -3.08089665001
173.43	 -3.54707236313
173.78	 -2.80383656044
174.12	 -1.50437311351
174.47	 -0.12756915177
174.81	 1.05522116127
175.16	 1.97818559445
175.51	 2.74467559074
175.85	 3.56180704688
176.2	 4.65974512285
176.54	 6.21958384949
176.89	 8.33442052801
177.23	 11.0071314496
177.58	 14.1655692384
177.93	 17.6814977785
178.27	 21.3958315493
178.62	 25.1477685085
178.96	 28.7951101471
179.31	 32.2206408228
179.65	 35.3303069692
180.0	 38.0483466471
180.34	 40.3105441771
180.69	 42.0559372761
181.04	 43.2203613177
181.38	 43.7413225536
181.73	 43.5813760912
182.07	 42.760094754
182.42	 41.3707634004
182.76	 39.5690705768
183.11	 37.5481845519
183.45	 35.5223181933
183.8	 33.7214333404
184.14	 32.3851799432
184.49	 31.749106683
184.84	 32.02539967
185.18	 33.3851781365
185.53	 35.9469144976
185.87	 39.7663846042
186.22	 44.821364231
186.56	 50.9921089002
186.91	 58.0423131422
187.25	 65.6045464197
187.6	 73.1779470854
187.94	 80.1478366047
188.29	 85.8281838413
188.64	 89.5170842222
188.98	 90.5576775005
189.33	 88.4060125416
189.67	 82.7029091173
190.02	 73.3375840142
190.36	 60.4989500762
190.71	 44.7139208222
191.05	 26.8488825741
191.4	 8.04442321498
191.74	 -10.4107234497
192.09	 -27.2319795355
192.43	 -41.2872747554
192.78	 -51.7206482548
193.12	 -58.0292854942
193.47	 -60.0773469618
193.81	 -58.0581730177
194.16	 -52.4371765457
194.5	 -43.88698254
194.85	 -33.2089447721
195.2	 -21.257545044
195.54	 -8.8952204171
195.89	 3.02677399802
196.23	 13.6965389487
196.58	 22.4031214692
196.92	 28.6180715765
197.27	 32.0599922437
197.61	 32.7159640068
197.96	 30.8223508705
198.3	 26.826665915
198.65	 21.3473623779
198.99	 15.1253210193
199.34	 8.94742915057
199.68	 3.54313289886
200.03	 -0.510691017548
200.37	 -2.83679930447
200.72	 -3.24721771369
201.06	 -1.69740334009
201.41	 1.76258643432
201.75	 7.01667178533
202.1	 13.8860471438
202.44	 22.1164194078
202.79	 31.3626962988
203.13	 41.1786899306
203.48	 51.0097350636
203.82	 60.1874737099
204.17	 67.9409289801
204.51	 73.4493527468
204.86	 75.9582642014
205.2	 74.9564961998
205.55	 70.3587639978
205.89	 62.5900075792
206.24	 52.5089046965
206.58	 41.2176509258
206.93	 29.8524514588
207.27	 19.4101466579
207.62	 10.6271349616
207.96	 3.91480886828
208.31	 -0.653201196107
208.65	 -3.31443405089
209.0	 -4.56434790842
209.34	 -5.08522304605
209.69	 -5.66034729002
210.03	 -7.07289005243
210.38	 -9.99493754864
210.72	 -14.8830077816
211.06	 -21.898607296
211.41	 -30.8679666021
211.75	 -41.2894120473
212.1	 -52.38427314
212.44	 -63.1752899082
212.79	 -72.5853734837
213.13	 -79.5710024394
213.48	 -83.2994275124
213.82	 -83.3272664899
214.17	 -79.6923384665
214.51	 -72.8718767901
214.86	 -63.6518079222
215.2	 -52.9771052772
215.55	 -41.815838507
215.89	 -31.0476044754
216.24	 -21.3846313664
216.58	 -13.3279379263
216.93	 -7.15538798628
217.27	 -2.93518995416
217.61	 -0.55612450996
217.96	 0.233494191067
218.3	 -0.215688802524
218.65	 -1.49354577432
218.99	 -3.16698227063
219.34	 -4.81752140946
219.68	 -6.08473533598
220.03	 -6.7131479731
220.37	 -6.58947543839
220.72	 -5.75253155404
221.06	 -4.36694124727
221.41	 -2.66985386398
221.75	 -0.911658531516
222.09	 0.691824925618
222.44	 1.98889713001
222.78	 2.90360702413
223.13	 3.43166851718
223.47	 3.623429896
223.82	 3.55969578255
224.16	 3.32887265294
224.51	 3.01051319508
224.85	 2.66549318222
225.19	 2.33326065522
225.54	 2.03600816896
225.88	 1.78535629475
226.23	 1.58667432207
226.57	 1.44002520667
226.92	 1.33903586328
227.26	 1.26925760586
227.61	 1.20772854503
227.95	 1.12492210776
228.29	 0.98871756593
228.64	 0.769097459438
228.98	 0.442453521231
229.33	 -0.00530014142682
229.67	 -0.576910369782
230.02	 -1.2623600724
230.36	 -2.03711719096
230.7	 -2.8606089166
231.05	 -3.67610208141
231.39	 -4.41310411324
231.74	 -4.99331564884
232.08	 -5.34049987817
232.43	 -5.39356989885
232.77	 -5.12117111458
233.11	 -4.53348609445
233.46	 -3.68461099494
233.8	 -2.66266766454
234.15	 -1.57259880732
234.49	 -0.518767317858
234.84	 0.40909538436
235.18	 1.1455025773
235.52	 1.65379259935
235.87	 1.92603025166
236.21	 1.97962996676
236.56	 1.85214660338
236.9	 1.59501721871
237.25	 1.26661962691
237.59	 0.925213291293
237.93	 0.62249719766
238.28	 0.398247585346
238.62	 0.276479512478
238.97	 0.263923023724
239.31	 0.351386404155
239.65	 0.517630179221
240.0	 0.73452186531
240.34	 0.972180835831
240.69	 1.20325205633
241.03	 1.4056501865
241.37	 1.56352139934
241.72	 1.66713504104
242.06	 1.71273326785
242.41	 1.70247352661
242.75	 1.64383856565
243.09	 1.54824366944
243.44	 1.42925405138
243.78	 1.30084478717
244.13	 1.17582607526
244.47	 1.06451915378
244.81	 0.973761641059
245.16	 0.906314610541
245.5	 0.860985774289
245.85	 0.833725304328
246.19	 0.819355053894
246.53	 0.813274164602
246.88	 0.812735753568
247.22	 0.817534294436
247.57	 0.829911115412
247.91	 0.853461774555
248.25	 0.891140316694
248.6	 0.94305517566
248.94	 1.00510246579
249.29	 1.06911022755
249.63	 1.12436042143
249.97	 1.15978810442
250.32	 1.16600817027
250.66	 1.13644443493
251.0	 1.06737022841
251.35	 0.957420085626
251.69	 0.807329133108
252.04	 0.620239796148
252.38	 0.402439836776
252.72	 0.16398686651
253.07	 -0.0814670776319
253.41	 -0.317878596481
253.76	 -0.528586469154
254.1	 -0.697965417505
254.44	 -0.812628808696
254.79	 -0.862419903834
255.13	 -0.841706154555
255.47	 -0.751053380574
255.82	 -0.598436577005
256.16	 -0.398913524434
256.5	 -0.172656886283
256.85	 0.057762883782
257.19	 0.270029985954
257.54	 0.444586337116
257.88	 0.567043946599
258.22	 0.629926870725
258.57	 0.632990936714
258.91	 0.582108957251
259.25	 0.487354903597
259.6	 0.360910505118
259.94	 0.215113436522
260.28	 0.0609141025264
260.63	 -0.0927678225328
260.97	 -0.238434531409
261.32	 -0.368611327544
261.66	 -0.474934972605
262.0	 -0.54869384834
262.35	 -0.582517590826
262.69	 -0.572283183684
263.03	 -0.518485919911
263.38	 -0.426354055341
263.72	 -0.304376679209
264.06	 -0.162060585923
264.41	 -0.00827880740391
264.75	 0.149258662477
265.09	 0.303936805392
265.44	 0.450169561646
265.78	 0.583430821242
266.12	 0.700296135914
266.47	 0.798483211597
266.81	 0.876841617895
267.15	 0.935257741372
267.5	 0.974605807005
267.84	 0.996772878248
268.18	 1.00438941983
268.53	 1.00000050415
268.87	 0.985110059641
269.21	 0.959716797351
269.56	 0.922336896278
269.9	 0.870158949983
270.24	 0.799370517459
270.59	 0.705977108112
270.93	 0.587110933724
271.27	 0.442512316233
271.62	 0.27584846765
271.96	 0.0953781778557
272.3	 -0.08664461663
272.65	 -0.255863370836
272.99	 -0.398108038292
273.33	 -0.501024623875
273.68	 -0.554885210388
274.02	 -0.553227563472
274.36	 -0.493816632657
274.71	 -0.379817969658
275.05	 -0.220716389671
275.39	 -0.0323736502032
275.74	 0.164250600283
276.08	 0.345575480254
276.42	 0.488375728019
276.77	 0.572744123335
277.11	 0.584978743947
277.45	 0.520224319429
277.8	 0.38415681693
278.14	 0.192808278414
278.48	 -0.0298083938534
278.83	 -0.25580253642
279.17	 -0.458362152543
279.51	 -0.616431875507
279.85	 -0.717679141524
280.2	 -0.758833503798
280.54	 -0.743948386188
280.88	 -0.682057132378
281.23	 -0.585222317989
281.57	 -0.467039910997
281.91	 -0.341251743722
282.26	 -0.220154369115
282.6	 -0.112772131836
282.94	 -0.0232694931867
283.28	 0.049774377314
283.63	 0.113059678063
283.97	 0.177400918976
284.31	 0.255927099044
284.66	 0.362006530571
285.0	 0.50727109274
285.34	 0.699931823981
285.69	 0.943570855049
286.03	 1.23671875207
286.37	 1.57349007642
286.71	 1.94526338483
287.06	 2.34286314441
287.4	 2.75832327758
287.74	 3.18564425282
288.09	 3.62068975317
288.43	 4.06069908249
288.77	 4.50384283879
289.11	 4.94917211403
289.46	 5.39696275713
289.8	 5.84897564538
290.14	 6.30828286017
290.49	 6.77882532995
290.83	 7.26487823918
291.17	 7.77038008266
291.51	 8.29834022105
291.86	 8.85077999413
292.2	 9.42931348353
292.54	 10.0360741449
292.88	 10.674686597
293.23	 11.3510290727
293.57	 12.0734760646
293.91	 12.8524307861
294.26	 13.6992026763
294.6	 14.6244346792
294.94	 15.6364260425
295.28	 16.739769823
295.63	 17.9345594086
295.97	 19.2162304294
296.31	 20.5760358157
296.65	 22.002037994
297.0	 23.4804139122
297.34	 24.9969513782
297.68	 26.538607894
298.02	 28.0947383497
298.37	 29.6575043911
298.71	 31.2213493293
299.05	 32.7818742415
299.39	 34.3346206172
299.74	 35.8741936399
300.08	 37.3939362788
300.42	 38.8861035665
300.77	 40.3423834377
301.11	 41.7546392596
301.45	 43.1156969762
301.79	 44.4199497651
302.14	 45.6637393325
302.48	 46.8456678866
302.82	 47.966881022
303.16	 49.031140588
303.5	 50.0444921255
303.85	 51.0145666913
304.19	 51.9498092167
304.53	 52.8588514044
304.87	 53.7499927147
305.22	 54.630732165
305.56	 55.5073661275
305.9	 56.3846074403
306.24	 57.2652028235
306.59	 58.1496570212
306.93	 59.036190941
307.27	 59.9210315749
307.61	 60.7990923029
307.96	 61.6648500271
308.3	 62.5129461806
308.64	 63.3382010278
308.98	 64.1352423087
309.33	 64.89823379
309.67	 65.6209901102
310.01	 66.2973972944
310.35	 66.9218808134
310.69	 67.4896945416
311.04	 67.9969804555
311.38	 68.4407814984
311.72	 68.8192158419
312.06	 69.1317563988
312.41	 69.3793298846
312.75	 69.5640606405
313.09	 69.6888125096
313.43	 69.7568505089
313.77	 69.7718195132
314.12	 69.7379760318
314.46	 69.6603939719
314.8	 69.5449417194
315.14	 69.3982218051
315.48	 69.2278612577
315.83	 69.0432291567
316.17	 68.8562372225
316.51	 68.6817581073
316.85	 68.5373246583
317.2	 68.4419728952
317.54	 68.4142801724
317.88	 68.469844578
318.22	 68.6188738359
318.56	 68.8649847964
318.91	 69.2057815099
319.25	 69.634455955
319.59	 70.1412149906
319.93	 70.7141533298
320.27	 71.3399358586
320.62	 72.0045742697
320.96	 72.6941550435
321.3	 73.3953025741
321.64	 74.0954747415
321.98	 74.783346448
322.33	 75.4493422908
322.67	 76.0861546096
323.01	 76.6890659541
323.35	 77.2560531275
323.69	 77.7877812807
324.04	 78.2874772669
324.38	 78.7604242229
324.72	 79.2128587597
325.06	 79.6504495065
325.4	 80.0768943394
325.74	 80.4931511804
326.09	 80.897416945
326.43	 81.2855378182
326.77	 81.6514667381
327.11	 81.9876426547
327.45	 82.2853977241
327.8	 82.5355142814
328.14	 82.7289419944
328.48	 82.8576049906
328.82	 82.9151830993
329.16	 82.8977085936
329.5	 82.8038578955
329.85	 82.6349263584
330.19	 82.3945523546
330.53	 82.0882864486
330.87	 81.7230809155
331.21	 81.3067349275
331.55	 80.8473668156
331.9	 80.3530583252
332.24	 79.831763769
332.58	 79.2914039576
332.92	 78.7399996918
333.26	 78.1858295886
333.6	 77.6376816393
333.95	 77.1051539896
334.29	 76.5988197985
334.63	 76.1300801768
334.97	 75.7106900814
335.31	 75.3521323107
335.65	 75.0650305238
336.0	 74.858599977
336.34	 74.7400333247
336.68	 74.7139172544
337.02	 74.7819348505
337.36	 74.942837701
337.7	 75.1923583672
338.04	 75.5229642034
338.39	 75.9237992925
338.73	 76.381132571
339.07	 76.8791962694
339.41	 77.4010457695
339.75	 77.9292405735
340.09	 78.4464359845
340.44	 78.9360477397
340.78	 79.3830275805
341.12	 79.7746880073
341.46	 80.1015775953
341.8	 80.3584633741
342.14	 80.5451776623
342.48	 80.6667166493
342.83	 80.7322792875
343.17	 80.7536873183
343.51	 80.7439092205
343.85	 80.7160924212
344.19	 80.68305167
344.53	 80.6568654448
344.87	 80.6483152285
345.21	 80.6662662244
345.56	 80.7172258183
345.9	 80.805104066
346.24	 80.9310421043
346.58	 81.0932301454
346.92	 81.2867184282
347.26	 81.503280852
347.6	 81.7314642831
347.94	 81.9569496778
348.29	 82.1632373612
348.63	 82.332595125
348.97	 82.4472173751
349.31	 82.4905151032
349.65	 82.4483643806
349.99	 82.3101050017
350.33	 82.0691540721
350.67	 81.7232046099
351.02	 81.2740527743
351.36	 80.72715409
351.7	 80.0910264062
352.04	 79.3765613429
352.38	 78.5962841748
352.72	 77.7636529723
353.06	 76.8924009992
353.4	 75.995769907
353.74	 75.0857631816
354.09	 74.1730192885
354.43	 73.2675236615
354.77	 72.3794714406
355.11	 71.5195911464
355.45	 70.6990165297
355.79	 69.9290883492
356.13	 69.2211718595
356.47	 68.5864055316
356.81	 68.0353532388
357.15	 67.5775567067
357.5	 67.2210181623
357.84	 66.9717129577
358.18	 66.8332396147
358.52	 66.8066672278
358.86	 66.8905580362
359.2	 67.0811008878
359.54	 67.3723874833
359.88	 67.7569151102
360.22	 68.2262137535
360.56	 68.7713131916
360.9	 69.3828592863
361.25	 70.0509371057
361.59	 70.7648302685
361.93	 71.5129384365
362.27	 72.2829381754
362.61	 73.0621798697
362.95	 73.8383288677
363.29	 74.6002507578
363.63	 75.3389853081
363.97	 76.0484322158
364.31	 76.7253506163
364.65	 77.3685840575
364.99	 77.9778372943
365.33	 78.5525329404
365.68	 79.0911351479
366.02	 79.590939668
366.36	 80.0480835807
366.7	 80.4576896948
367.04	 80.8142814434
367.38	 81.1125406419
367.72	 81.3482849308
368.06	 81.5194169608
368.4	 81.6266206064
368.74	 81.6737251987
369.08	 81.6677533148
369.42	 81.6186209105
369.76	 81.5383886392
370.1	 81.4400364181
370.44	 81.3359560577
370.79	 81.2365327618
371.13	 81.1491598874
371.47	 81.0778504009
371.81	 81.0234209517
372.15	 80.9841425666
372.49	 80.95671683
372.83	 80.9372922488
373.17	 80.9221008279
373.51	 80.9074882757
373.85	 80.8895617695
374.19	 80.8639135626
374.53	 80.8256534889
374.87	 80.7696370093
375.21	 80.6908163424
375.55	 80.584915023
375.89	 80.4494883407
376.23	 80.2849669471
376.57	 80.0951911964
376.91	 79.8872955978
377.25	 79.6711236449
377.6	 79.4584438107
377.94	 79.2620987427
378.28	 79.0950014156
378.62	 78.9689358344
378.96	 78.8934049911
379.3	 78.8748712281
379.64	 78.9165570485
379.98	 79.0187931785
380.32	 79.1797442331
380.66	 79.3961462208
381.0	 79.6637679076
381.34	 79.9777066302
381.68	 80.3327546941
382.02	 80.723788414
382.36	 81.1460169854
382.7	 81.5950818382
383.04	 82.06702266
383.38	 82.5581048212
383.72	 83.0646332933
384.06	 83.5828714061
384.4	 84.1089978117
384.74	 84.6390655762
385.08	 85.1690724038
385.42	 85.6951474499
385.76	 86.2136959139
386.1	 86.7213821797
386.44	 87.2149694133
386.78	 87.6911534191
387.12	 88.1465766864
387.46	 88.5781054098
387.8	 88.9832297079
388.14	 89.3602807912
388.48	 89.7082472347
388.82	 90.0262963952
389.16	 90.3133832655
389.5	 90.56833113
389.84	 90.7904517579
390.18	 90.9803215752
390.52	 91.1402230439
390.86	 91.2741281047
391.2	 91.3873829302
391.54	 91.4861753333
391.88	 91.5768292774
392.22	 91.6651355628
392.56	 91.755956184
392.9	 91.853105381
393.24	 91.9592963769
393.58	 92.0759618599
393.92	 92.2029173295
394.26	 92.3379674224
394.6	 92.4766206459
394.94	 92.6121194763
395.28	 92.7359509722
395.62	 92.8388101516
395.96	 92.9117939854
396.3	 92.9475818047
396.64	 92.941428811
396.98	 92.8918265511
397.32	 92.8006873669
397.66	 92.6729797268
398.0	 92.5159149908
398.34	 92.3379489186
398.68	 92.1478573797
399.02	 91.9539947595
399.36	 91.7636883266
399.7	 91.5827185263
400.04	 91.4150038156
400.38	 91.2626935224
400.72	 91.1266674953
401.06	 91.0071502969
401.4	 90.9041467143
401.74	 90.8177016262
402.08	 90.7481421782
402.42	 90.6962592717
402.76	 90.6631989017
403.1	 90.6499919472
403.44	 90.6569342965
403.78	 90.6830923536
404.12	 90.7261000984
404.46	 90.7822917886
404.79	 90.8470286987
405.13	 90.9149569181
405.47	 90.9801511711
405.81	 91.0364385952
406.15	 91.0781598239
406.49	 91.1012274622
406.83	 91.1040727811
407.17	 91.0881533955
407.51	 91.0578753225
407.85	 91.0199035909
408.19	 90.9819881239
408.53	 90.951551664
408.87	 90.934295933
409.21	 90.9331361406
409.55	 90.9478004369
409.89	 90.9751707205
410.23	 91.0101193483
410.57	 91.0465645833
410.91	 91.0785722952
411.25	 91.101339184
411.58	 91.1118835769
411.92	 91.1093634777
412.26	 91.0950682882
412.6	 91.0721746924
412.94	 91.0453259064
413.28	 91.0200148786
413.62	 91.0016956915
413.96	 90.9947025627
414.3	 91.0013493038
414.64	 91.0216113727
414.98	 91.0534560834
415.32	 91.0935481569
415.66	 91.1380421484
416.0	 91.1833480387
416.33	 91.2267300574
416.67	 91.2664537393
417.01	 91.3013933782
417.35	 91.3304416395
417.69	 91.3521914575
418.03	 91.3651046399
418.37	 91.3680373733
418.71	 91.3607865335
419.05	 91.3443756583
419.39	 91.3210965879
419.73	 91.2945583454
420.07	 91.2698185582
420.41	 91.2532812481
420.74	 91.2520346407
421.08	 91.2727305637
421.42	 91.320423809
421.76	 91.3976762316
422.1	 91.5039415157
422.44	 91.6352748304
422.78	 91.7847004122
423.12	 91.9433657295
423.46	 92.101934239
423.8	 92.2515947798
424.13	 92.3846922806
424.47	 92.4952983255
424.81	 92.5797869469
425.15	 92.6372149907
425.49	 92.6693287148
425.83	 92.6802166567
426.17	 92.6757408229
426.51	 92.662822115
426.85	 92.648629559
427.19	 92.6397670151
427.52	 92.6415002306
427.86	 92.6570249568
428.2	 92.6869281607
428.54	 92.7291084055
428.88	 92.7792385968
429.22	 92.8315950504
429.56	 92.8800240192
429.9	 92.9188762127
430.24	 92.9437481012
430.57	 92.9518918417
430.91	 92.9422933584
431.25	 92.9155846319
431.59	 92.873968188
431.93	 92.8211364084
432.27	 92.7619687213
432.61	 92.701867963
432.95	 92.6459175731
433.28	 92.5982085165
433.62	 92.5615084766
433.96	 92.5372406874
434.3	 92.5257291283
434.64	 92.5266014757
434.98	 92.5390684856
435.32	 92.5619437955
435.66	 92.5936800772
435.99	 92.6326802903
436.33	 92.6776704866
436.67	 92.7277878476
437.01	 92.782437881
437.35	 92.8412265833
437.69	 92.9040050106
438.03	 92.9707404555
438.36	 93.0410723857
438.7	 93.1137854878
439.04	 93.1864870755
439.38	 93.2556199718
439.72	 93.3169542072
440.06	 93.3666472687
440.4	 93.4025691144
440.73	 93.4252160571
441.07	 93.4376219871
441.41	 93.4442249331
441.75	 93.4492681871
442.09	 93.4554901519
442.43	 93.4635101554
442.77	 93.4718752476
443.1	 93.4775221287
443.44	 93.4763750581
443.78	 93.4638281203
444.12	 93.4350109298
444.46	 93.3849908348
444.8	 93.3091661491
445.13	 93.2039386585
445.47	 93.0675058867
445.81	 92.9004399603
446.15	 92.705695789
446.49	 92.4879568304
446.83	 92.252641218
447.16	 92.0050205599
447.5	 91.7497194111
447.84	 91.4906591618
448.18	 91.2313010398
448.52	 90.9748732753
448.86	 90.7243878623
449.19	 90.482515606
449.53	 90.2514271585
449.87	 90.0326074104
450.21	 89.8266536713
450.55	 89.6331326491
450.88	 89.4505719897
451.22	 89.2765884452
451.56	 89.1081106126
451.9	 88.9417083727
452.24	 88.7740474684
452.58	 88.6023457342
452.91	 88.4246321859
453.25	 88.2397339591
453.59	 88.0470476639
453.93	 87.8462013971
454.27	 87.6367517119
454.6	 87.4180004294
454.94	 87.1888707681
455.28	 86.9478260057
455.62	 86.693055931
455.96	 86.4232295885
456.29	 86.1388060167
456.63	 85.8434071786
456.97	 85.5445652026
457.31	 85.2534916185
457.65	 84.9839194626
457.98	 84.7500773368
458.32	 84.5638915098
458.66	 84.4322036226
459.0	 84.3554841571
459.34	 84.3288120398
459.67	 84.3442268197
460.01	 84.3929888771
460.35	 84.4670897916
460.69	 84.5600577958
461.03	 84.66719239
461.36	 84.7853562791
461.7	 84.9125056418
462.04	 85.0471394964
462.38	 85.1878435688
462.72	 85.333051526
463.05	 85.4810013315
463.39	 85.6297996913
463.73	 85.7775655812
464.07	 85.9226338416
464.4	 86.0637612505
464.74	 86.200320788
465.08	 86.3325022486
465.42	 86.4614286979
465.76	 86.5890301365
466.09	 86.7176185941
466.43	 86.8492331774
466.77	 86.9849211352
467.11	 87.1241979181
467.44	 87.2648670333
467.78	 87.4032394785
468.12	 87.5347564148
468.46	 87.6549799803
468.79	 87.7607103526
469.13	 87.8508317276
469.47	 87.9266331917
469.81	 87.9916353286
470.15	 88.0510913387
470.48	 88.1112555537
470.82	 88.1784129859
471.16	 88.2577456354
471.5	 88.3523278866
471.83	 88.4626618108
472.17	 88.5869766804
472.51	 88.722106634
472.85	 88.8644894428
473.18	 89.0108821431
473.52	 89.1586434365
473.86	 89.3056840949
474.2	 89.4502581715
474.53	 89.5906749977
474.87	 89.7249567795
475.21	 89.8505328324
475.55	 89.9641084771
475.88	 90.061779422
476.22	 90.1393902972
476.56	 90.1931024579
476.89	 90.2200583137
477.23	 90.2189582359
477.57	 90.1903616454
477.91	 90.1365597262
478.24	 90.0610337877
478.58	 89.9677952321
478.92	 89.8610085417
479.26	 89.7450662943
